sample id,record,beat,label,x-0,x-1,x-2,x-3,x-4,x-5,x-6,x-7,x-8,x-9,x-10,x-11,x-12,x-13,x-14,x-15,x-16,x-17,x-18,x-19,x-20,x-21,x-22,x-23,x-24,x-25,x-26,x-27,x-28,x-29,x-30,x-31,x-32,x-33,x-34,x-35,x-36,x-37,x-38,x-39,x-40,x-41,x-42,x-43,x-44,x-45,x-46,x-47,x-48,x-49,x-50,x-51,x-52,x-53,x-54,x-55,x-56,x-57,x-58,x-59,x-60,x-61,x-62,x-63,x-64,x-65,x-66,x-67,x-68,x-69,x-70,x-71,x-72,x-73,x-74,x-75,x-76,x-77,x-78,x-79,x-80,x-81,x-82,x-83,x-84,x-85,x-86,x-87,x-88,x-89,x-90,x-91,x-92,x-93,x-94,x-95,x-96,x-97,x-98,x-99,x-100,x-101,x-102,x-103,x-104,x-105,x-106,x-107,x-108,x-109,x-110,x-111,x-112,x-113,x-114,x-115,x-116,x-117,x-118,x-119,x-120,x-121,x-122,x-123,x-124,x-125,x-126,x-127,x-128,x-129,x-130,x-131,x-132,x-133,x-134,x-135,x-136,x-137,x-138,x-139,x-140,x-141,x-142,x-143,x-144,x-145,x-146,x-147,x-148,x-149,x-150,x-151,x-152,x-153,x-154,x-155,x-156,x-157,x-158,x-159,x-160,x-161,x-162,x-163,x-164,x-165,x-166,x-167,x-168,x-169,x-170,x-171,x-172,x-173,x-174,x-175,x-176,x-177,x-178,x-179,x-180,x-181,x-182,x-183,x-184,x-185,x-186,x-187,x-188,x-189,x-190,x-191,x-192,x-193,x-194,x-195,x-196,x-197,x-198,x-199,x-200,x-201,x-202,x-203,x-204,x-205,x-206,x-207,x-208,x-209,x-210,x-211,x-212,x-213,x-214,x-215,x-216,x-217,x-218,x-219,x-220,x-221,x-222,x-223,x-224,x-225,x-226,x-227,x-228,x-229,x-230,x-231,x-232,x-233
0,7,1,a,0.017344579879962303,0.019483915706480105,0.01724238968747385,0.01023490994645817,0.009118470769549447,0.00940043360015842,0.00873088801780365,0.017475805798739537,0.02376977905274975,0.013901501276157639,0.01733934632518114,0.041462508114454254,0.028906756726365345,-0.023156756697329587,-0.02869514807290231,0.024807061952779458,0.053373151804540844,0.044456256443838896,0.04998479228942861,0.04910383144956824,0.009471478203475018,-0.01634824134622423,-0.0024032249319568353,-0.000673375644589094,-0.007845620917993143,0.026775675735773052,0.06586990340182713,0.051060946763762806,0.028695737378496598,0.046381688009304575,0.053500703282732,0.01672337508261305,-0.015138038057920081,-0.014738704039591785,-0.008672680965268242,-0.008674489023913684,-0.009221649890072275,-0.014927467439462865,-0.02082245427861589,-0.017580683555201954,-0.01805053363842671,-0.030531034095443558,-0.03296372112287466,-0.0063486470352596205,0.03314098754312113,0.04658768135493742,0.01514971789532272,-0.023089845956979004,-0.014653332813439229,0.023166236638927723,0.03144233267597414,0.014574846114820105,0.013955513861082167,0.01737224328303429,0.0026071883328561756,-0.004268267362755925,-0.0005081937336467667,-0.027261475381883435,-0.070555428627254,-0.06908207614147975,-0.02667145596849713,0.0012189010800563002,0.0018231701911666758,0.0008680838136850001,0.012700282629569987,0.02805954983997219,0.01609449315755045,-0.03306914214523222,-0.06883402320532607,-0.05887083539867841,-0.0462929590492709,-0.03541450625157344,0.04017791316748437,0.15507644479658317,0.20689587045392968,0.22222756459983917,0.2925038184320664,0.36572980498449814,0.37830117559370824,0.43250669000726083,0.5849427337099727,0.7041640216859827,0.723512749906741,0.732091776226237,0.7497855062282646,0.735154904877518,0.7397538548893239,0.7733842438375907,0.7461770741006489,0.714455150976849,0.78998955160988,0.7860417385243393,0.5026356688192805,0.23444685339244897,0.34472438244093967,0.5911311226179077,0.5445478009696674,0.3129035011632307,0.22824475375674633,0.24563712318751446,0.17190398734106188,0.06308219943746429,0.032304086570854505,0.03514907421592581,0.022742887742344686,0.017619332602355108,0.018820005951230002,0.014824693576425307,0.009561805300173084,-0.016428988497486446,-0.04850349172173114,-0.02021627081592814,0.03972484263680085,0.024830286301620874,-0.038313739711349416,-0.03705704958679308,0.008166277768850434,0.015458400706092515,0.0078802973483181,0.016437026001271938,0.005537396879387032,-0.008883024232105758,0.01307309268720426,0.011033464768592795,-0.056667711141020025,-0.09630020996405822,-0.0548261577786747,-0.01778707187778589,-0.030199912290582956,-0.03776020209355684,-0.02593282869770381,-0.024691855184730497,-0.025265052522122862,-0.01832666609787278,-0.01947469643882945,-0.017680135536716806,-0.005312828103960579,-0.01584658145627085,-0.047050295445210236,-0.04626539064400672,-0.011055437509583276,0.008709171013934812,-0.006569751003655993,-0.044052833337224956,-0.07714361400554777,-0.06614683300932626,-0.019654167734611025,0.00016184090595496066,-0.0095985606307414,-0.0021554455997562804,-0.003478030465440151,-0.04857729660758271,-0.0681868730883142,-0.01904808667427375,0.01952750742479353,0.010914845951307206,0.012762104709703504,0.01613017345852477,-0.0232815460436286,-0.04362142482935569,0.002960572484232981,0.03337193054019831,0.007635739061215063,-0.0006651646559051181,0.008833108605073144,-0.03224328556503559,-0.07812903604857412,-0.04486914127518796,0.018480157205226434,0.03521888326885604,0.0321227981381034,0.04228197527126522,0.04426001866610612,0.03976298719734365,0.04557609684697623,0.04206367122183497,0.027373644666204316,0.03302401622595647,0.04408611872758167,0.01839279273433033,-0.02081716780845712,-0.018210037312651597,0.020089803015591132,0.039493771629986234,0.01118459975791432,-0.034144902073300225,-0.037857130963230796,0.006886182356565577,0.037461512136815346,0.024439177142473067,0.016275434606552962,0.03476577593403878,0.03884510393482228,0.025747127342176226,0.03590262636158797,0.05312793193047953,0.0313864238446999,-0.009118401217779192,-0.02311846275031565,-0.017642556265569705,-0.013257619342750257,-0.00641951922878669,-0.004743254097682384,-0.018012693897703977,-0.018841160782216915,0.014476574545404599,0.05037925813853958,0.056347899469995605,0.04862513820034675,0.05158401486308382,0.059543106600279096,0.061304699695347395,0.06082659081143626,0.06180755386601798,0.05549513254985538,0.03083871867190849,-0.00453328504206234,-0.01888029402706147,0.007775213541846065,0.0470307663803558,0.056672713797995766,0.04269872078952318,0.03950737731370349,0.04566097085503165,0.03872716313134747,0.029420740396805506,0.035397527237203026,0.036403364274638327,0.02030487878821861,0.019695318049102645,0.04116129255372191,0.03565600529825672,-0.0039773228519119404,-0.014537066230733742
1,7,2,a,-0.012533442431721045,-0.00653266294765639,0.04784951300989819,0.05998411362640282,0.01805637723411324,0.021126611829783957,0.06787317337087069,0.04191131129761658,-0.0362912679525812,-0.02755238470971143,0.038345795079641184,0.014424760986255936,-0.060323419679630556,-0.0428996644245171,0.02390531877361823,0.017721772621525776,-0.018866708931462823,-0.0026904607295744863,0.018640360459899374,0.004527990180956269,0.0033831172981896793,0.007324390457273661,-0.03618170614658231,-0.07319763601996122,-0.03161039128889853,0.026750809958614757,0.03193811579483174,0.03149830657765101,0.053759330896078705,0.038384827674150496,-0.013847706580964996,-0.019147338608847084,0.03179414762583947,0.06576493218848795,0.06045340859238167,0.05534075451097317,0.06704902712781954,0.07332397171794303,0.050662114366883004,0.007812877357858593,-0.009141143855148566,0.024145992873443246,0.06438181915698002,0.06949390290840858,0.0614667244489573,0.06364887253629757,0.05812158869142239,0.04515094475907865,0.04675394050330038,0.04523010033808887,0.015913418465703155,-0.013452029607088366,-0.01801008697399248,-0.019294088752254003,-0.019435114873933616,0.009965207714883398,0.04895197513367973,0.04816872743058191,0.024201940060132696,0.03029244988487777,0.053549325138503905,0.03923168306012087,-0.007590159505917581,-0.03164904761812351,-0.02105354873191074,-0.011933641786474223,-0.007869468641957375,0.020366113431800188,0.05376474263247428,0.04445490177672673,0.01788859472580668,0.03600213864546017,0.07403279400525282,0.07611316475012068,0.08598901862121054,0.16165701928264328,0.24398752925554165,0.27174147387094755,0.30428554660099183,0.3874579454183966,0.45592346836942366,0.4802614670674353,0.5337429531753989,0.6401377240760303,0.7265319201549508,0.7561108310789991,0.7624994301388888,0.7654161992945681,0.7626474687195725,0.7661900240336519,0.7768505116359291,0.7742731102539039,0.7621923165506629,0.7642232400357958,0.7645307128316678,0.7173468959841997,0.6321056089015935,0.5811057537584007,0.578591674722079,0.5268754569726962,0.3667357633219696,0.19796532594629146,0.13184725425767588,0.12241894233299566,0.08015381530691511,0.03171797208971257,0.029782856760910574,0.03963569645724808,0.026830180672054955,0.020290020158403064,0.028237862275084704,0.02291745394529455,0.012477157653543004,0.016927465634810592,0.017698079359207187,0.006240939361639148,0.005275826159124116,0.011077017105528351,0.002061497435018218,-0.00927711083085895,-0.00826335841429976,-0.01169462654042442,-0.022365130748676805,-0.01972547947310411,-0.008981764370775868,-0.009386600437306564,-0.012053612402596104,-0.004676374594586394,0.0004945017420518104,-0.004375101357203378,-0.008896585724377763,-0.008631305610521903,-0.009696198755139945,-0.015278412920322268,-0.022784152393513772,-0.026323105713841114,-0.025348135065572937,-0.0277089592341495,-0.02930153971414427,-0.014364250461376021,0.008224703767844873,0.01329117416029581,0.007849120786470425,0.013700800111050243,0.019465858432888717,0.009868312940333399,0.003098785090383363,0.011240153819086544,0.017719232637864908,0.016627162413049696,0.017313800626102313,0.017653559231130742,0.01818328675009268,0.028454858220359307,0.03886159383983056,0.036144439004796546,0.03515014028435123,0.045097397694674544,0.04746615422540991,0.042048082101454665,0.04929356020385515,0.059178822496371866,0.05175900948877579,0.04566506378039984,0.05990508113478702,0.0762456794734149,0.08386184224746343,0.09677887881157235,0.11148414420355707,0.1133202509967254,0.11222757236438784,0.11920414004390041,0.12285332826683562,0.12054606607964342,0.12492420036277468,0.13165323451112942,0.12837658298464294,0.12292731912817759,0.12420081845078977,0.12089825261911133,0.10506735166883643,0.08803348336962567,0.07960512750782794,0.07526447077615096,0.06893638868009477,0.06282107939837343,0.0612355042499884,0.06167387175448863,0.05811654489745258,0.052017503712578975,0.050594816833374065,0.05497618709807665,0.06036397362831369,0.06320856017847344,0.061083115272066224,0.05514034698507616,0.052199027471892805,0.05294517172504971,0.049667335676070526,0.04380160719692501,0.0432849473545458,0.04317357300748815,0.037132886469374425,0.03383815975483208,0.035138205445497846,0.02764022800320634,0.014558679013509754,0.014197663349536458,0.021639116104060916,0.018388206123338045,0.00970506005368338,0.009368349963652746,0.010669504221156928,0.005101661504432018,0.00018613282888730177,0.0005423726396143666,-0.0005505234831408942,-0.005922823135792158,-0.010546258706391242,-0.0096640483990102,-0.003909395956774794,0.00020013295938149656,-0.00027489605759814664,0.0015411317571721967,0.00761913306361284,0.009676699812926057,0.008847866351639743,0.01372306776772207,0.018626727991583426,0.01741364263722381,0.022114469594944116,0.035236884514137576,0.038853945253787464,0.03385777795626566
2,7,3,a,0.005101661504432018,0.00018613282888730177,0.0005423726396143666,-0.0005505234831408942,-0.005922823135792158,-0.010546258706391242,-0.0096640483990102,-0.003909395956774794,0.00020013295938149656,-0.00027489605759814664,0.0015411317571721967,0.00761913306361284,0.009676699812926057,0.008847866351639743,0.01372306776772207,0.018626727991583426,0.01741364263722381,0.022114469594944116,0.035236884514137576,0.038853945253787464,0.03385777795626566,0.03956957328345093,0.049219934792729694,0.044272806800987934,0.0378779180317862,0.04791172881881549,0.06003550266593116,0.06074043394322817,0.06108179141184893,0.06415744963120146,0.05970597188944777,0.05304602537739662,0.053801537367409696,0.053380089723398326,0.04662270256129983,0.04397452828507854,0.0453922295507484,0.04066116484057199,0.035196130695838,0.03704285829879325,0.033953648317645406,0.01772619837350628,0.005100670419603279,0.0072816054376233135,0.011014219369733166,0.008629689500159805,0.011356202090969601,0.021520868471658287,0.026568437207455633,0.02482762653893768,0.0263681346634888,0.03211899940544537,0.035914154489681,0.03602127246543682,0.03201663767911342,0.02646152104892728,0.026127514067967136,0.024856744315113536,0.008962732090528976,-0.00970495246257372,-0.009564301255181994,-0.003610120640745529,-0.011116346824099219,-0.014079595014651931,-0.00024817233619901856,0.008518067666029116,0.01205663884114501,0.029950168675820114,0.040740748566992654,0.027347265760694878,0.030352691809364202,0.0537657414190984,0.0399741453455359,0.017982300844958905,0.08753110376787143,0.21852653676591213,0.29374600775352366,0.3172851862315874,0.3486343943760483,0.3581393635415836,0.3593502283996914,0.4682735541409484,0.6684357374900408,0.7889573616023542,0.7945488832146058,0.803146372862115,0.836072372010127,0.8341266213939359,0.8228354408442998,0.8387002989975463,0.8413853669555422,0.8207968933036682,0.8155393411974601,0.8094279240302849,0.7694904566463304,0.7103833493193464,0.6214626998654086,0.47890818205540264,0.35061379330605497,0.3030069744484773,0.261856922243124,0.14709185138676698,0.02485705810500099,-0.020629620602443735,-0.016713459595695167,-0.01530114564454305,-0.019268696247939497,-0.024447642969269143,-0.031650694809405466,-0.03526441141192295,-0.04275027294135666,-0.058539737653346406,-0.0633804585647019,-0.056557521001067305,-0.06149112154903595,-0.06906005713311056,-0.05423817495705517,-0.0316009189861067,-0.019290396310898645,-0.001163016184862242,0.02495536723504336,0.03603870148808832,0.0346278075235293,0.0370649472525097,0.035785378659840286,0.027578547123050214,0.027094330026945408,0.029368688343008237,0.019807893044817084,0.009376453298577017,0.008993220974034054,0.008312580465310705,0.006530370827683878,0.012497347063144808,0.017630018319010055,0.015513944373958082,0.018337479951707432,0.025883937926644823,0.024196501757764003,0.018077560601246656,0.018318613471051078,0.01727449470464732,0.010888190547226846,0.008860713047918294,0.009643496418648149,0.004762414881163033,-9.094752881013338e-06,0.0005720436947079269,-0.001297394237754816,-0.007244331381772515,-0.009625935005029373,-0.00879028394683725,-0.009151621763451046,-0.008080122998845491,-0.002855198420249164,0.0039036653297856035,0.00853098918964729,0.00912911581475945,0.009069315007186,0.014124489629362242,0.020262910448311435,0.01848862279020499,0.01199695166980149,0.008332077012071743,0.00398245047257403,-0.0038597722108302183,-0.008545183409219727,-0.008634773374848487,-0.008769303472205704,-0.0056691512908327284,0.005888785906137724,0.022103969969212708,0.03799388953243767,0.05351724137511392,0.06922119242940744,0.08437502608467584,0.09499841731404578,0.09690043058089011,0.09650004475524343,0.10197073536973508,0.10522025774544724,0.0989886257082142,0.09488498552713895,0.09653043086046202,0.08943359244176528,0.07573800536102687,0.07077025554348705,0.06700181540818538,0.05396854538804663,0.04742765183540997,0.054388751503425814,0.05598663594348178,0.04825806752716065,0.044147172178320385,0.04078608024547265,0.03421231002032141,0.033687977156063316,0.034821236078400035,0.02786995020047082,0.024401508753813177,0.02606697631692544,0.012658720393094434,-0.006547675876193603,-0.00353554663147105,0.006629458124552731,-0.0006179450293780027,-0.0027089023829165275,0.017781422942642938,0.03402964349906003,0.03412376846550037,0.03509277225235864,0.033783008460940595,0.02234035304328527,0.01676174788418718,0.018303859042117804,0.009471475674554034,-0.0009487926313925863,0.0013339804279768543,0.0021352671248489902,-0.0017266243481568937,0.007188565607707444,0.01920859675429266,0.015987184596309042,0.0135901980492144,0.023356776095030826,0.026898225232136093,0.023004663629050303,0.027620641324638914,0.034249071962308454,0.035717873916122966,0.04202744485701128,0.04762688360272982,0.04332171350724163,0.04553596926562614
